Column 1: energy in eV
Column 2: alpha *1e3 in 1/cm, linear interpolation
Column 3: energy in eV
Column 4: alpha *1e3 in 1/cm, spline interpolation
Column 5: lambda in nm
Column 6: alpha *1e3 in 1/cm, linear interpolation
Column 7: lambda in nm
Column 8: alpha *1e3 in 1/cm, spline interpolation
0.255637498969	0.804731788286	0.252000380081	0.509582822653	4850.0	0.804731788286	4920.0	0.509582822653
0.28502111954	0.977089485937	0.28502111954	0.841759436443	4350.0	0.977089485937	4350.0	0.841759436443
0.328870522546	1.78337440469	0.329745178191	1.60052807315	3770.0	1.78337440469	3760.0	1.60052807315
0.371210140719	2.60794894	0.373446346386	2.49705312122	3340.0	2.60794894	3320.0	2.49705312122
0.410543665563	3.19865933707	0.410543665563	3.13688719899	3020.0	3.19865933707	3020.0	3.13688719899
0.444387767025	3.47460763078	0.442800667857	3.37707297358	2790.0	3.47460763078	2800.0	3.37707297358
0.480558864341	3.20174741533	0.480558864341	3.1020183153	2580.0	3.20174741533	2580.0	3.1020183153
0.53143672096	2.27587427845	0.530300201027	2.15811964634	2333.0	2.27587427845	2338.0	2.15811964634
0.562541683303	1.79701299969	0.566396468707	1.61234129737	2204.0	1.79701299969	2189.0	1.61234129737
0.598957425121	1.55302416428	0.598957425121	1.39280300878	2070.0	1.55302416428	2070.0	1.39280300878
0.635490451051	1.52603501643	0.634514774821	1.40083192924	1951.0	1.52603501643	1954.0	1.40083192924
0.670184794595	1.61534147545	0.670910102814	1.52650262137	1850.0	1.61534147545	1848.0	1.52650262137
0.706865376283	1.76422400695	0.706865376283	1.6782965861	1754.0	1.76422400695	1754.0	1.6782965861
0.742865110845	1.93207472125	0.742865110845	1.83962580757	1669.0	1.93207472125	1669.0	1.83962580757
0.779284644877	2.11463468356	0.779284644877	2.01676325465	1591.0	2.11463468356	1591.0	2.01676325465
0.815685440789	2.30871839973	0.815685440789	2.20658496992	1520.0	2.30871839973	1520.0	2.20658496992
0.852124996564	2.51649866094	0.852124996564	2.40956024404	1455.0	2.51649866094	1455.0	2.40956024404
0.888138875358	2.72947640801	0.888138875358	2.61400959506	1396.0	2.72947640801	1396.0	2.61400959506
0.925255126866	2.95174031689	0.925255126866	2.82965438152	1340.0	2.95174031689	1340.0	2.82965438152
0.961117728682	3.17164156694	0.961117728682	3.04020312419	1290.0	3.17164156694	1290.0	3.04020312419
0.996657451768	3.40096386901	0.996657451768	3.2602010319	1244.0	3.40096386901	1244.0	3.2602010319
1.03320155833	3.65071690503	1.03406327773	3.50831641723	1200.0	3.65071690503	1199.0	3.50831641723
1.06882919828	3.90171428593	1.06882919828	3.74470471169	1160.0	3.90171428593	1160.0	3.74470471169
1.106014157	4.17706235795	1.106014157	4.00802384563	1121.0	4.17706235795	1121.0	4.00802384563
1.14165918048	4.44272430586	1.14165918048	4.2628617317	1086.0	4.44272430586	1086.0	4.2628617317
1.17743767331	4.71674161295	1.17743767331	4.5241945937	1053.0	4.71674161295	1053.0	4.5241945937
1.21315251468	5.00006334942	1.21315251468	4.79633580373	1022.0	5.00006334942	1022.0	4.79633580373
1.24858194361	5.30155536844	1.24858194361	5.08549330105	993.0	5.30155536844	993.0	5.08549330105
1.28348019669	5.60815546992	1.28348019669	5.38094475618	966.0	5.60815546992	966.0	5.38094475618
1.32038537806	5.93767762822	1.32038537806	5.69828857038	939.0	5.93767762822	939.0	5.69828857038
1.35353915939	6.22974541608	1.35501843716	5.99423773414	916.0	6.22974541608	915.0	5.99423773414
1.40253605204	6.6990135202	1.40095126554	6.40639117121	884.0	6.6990135202	885.0	6.40639117121
1.41534460046	6.78963425368	1.41696213714	6.52980728833	876.0	6.78963425368	875.0	6.52980728833
1.30098832109	5.78155320456	1.30098832109	5.54242644096	953.0	5.78155320456	953.0	5.54242644096
1.30235490546	5.78946745481	1.30235490546	5.54999457558	952.0	5.78946745481	952.0	5.54999457558
1.30372436383	5.80120565315	1.30372436383	5.56122684003	951.0	5.80120565315	951.0	5.56122684003
1.30509670526	5.80215467686	1.30509670526	5.56210862394	950.0	5.80215467686	950.0	5.56210862394
1.30647193888	5.81424543246	1.30647193888	5.57368832413	949.0	5.81424543246	949.0	5.57368832413
1.30785007384	5.818525092	1.30785007384	5.57779654843	948.0	5.818525092	948.0	5.57779654843
1.30923111932	5.82919402025	1.30923111932	5.58800325053	947.0	5.82919402025	947.0	5.58800325053
1.31061508457	5.83728664781	1.31061508457	5.59573888516	946.0	5.83728664781	946.0	5.59573888516
1.31200197884	5.8442447125	1.31200197884	5.60239800934	945.0	5.8442447125	945.0	5.60239800934
1.31339181144	5.8530528719	1.31339181144	5.6108013811	944.0	5.8530528719	944.0	5.6108013811
1.31478459173	5.8628681183	1.31478459173	5.62021108627	943.0	5.8628681183	943.0	5.62021108627
1.31618032909	5.8723064387	1.31618032909	5.62920511744	942.0	5.8723064387	942.0	5.62920511744
1.31757903294	5.88131726645	1.31757903294	5.63781491454	941.0	5.88131726645	941.0	5.63781491454
1.31898071277	5.8950645852	1.31898071277	5.65091863423	940.0	5.8950645852	940.0	5.65091863423
1.32038537806	5.90373998308	1.32038537806	5.65923048278	939.0	5.90373998308	939.0	5.65923048278
1.32179303838	5.91568867499	1.32179303838	5.67064607152	938.0	5.91568867499	938.0	5.67064607152
1.32320370331	5.92878085463	1.32320370331	5.68317136036	937.0	5.92878085463	937.0	5.68317136036
1.32461738248	5.94870256668	1.32461738248	5.70211401325	936.0	5.94870256668	936.0	5.70211401325
1.32603408556	5.95913112772	1.32603408556	5.71207632265	935.0	5.95913112772	935.0	5.71207632265
1.32745382227	5.97719969568	1.32745382227	5.72931095327	934.0	5.97719969568	934.0	5.72931095327
1.32887660236	5.98517289974	1.32887660236	5.73693045728	933.0	5.98517289974	933.0	5.73693045728
1.33030243562	6.00276893189	1.33030243562	5.75373330359	932.0	6.00276893189	932.0	5.75373330359
1.3317313319	6.01970282114	1.3317313319	5.76987269679	931.0	6.01970282114	931.0	5.76987269679
1.33316330108	6.04182866557	1.33316330108	5.79093214508	930.0	6.04182866557	930.0	5.79093214508
1.33459835307	6.05907333447	1.33459835307	5.80741911933	929.0	6.05907333447	929.0	5.80741911933
1.33603649784	6.07561558635	1.33603649784	5.82317366	928.0	6.07561558635	928.0	5.82317366
1.33747774542	6.09547625722	1.33747774542	5.84210917099	927.0	6.09547625722	927.0	5.84210917099
1.33892210583	6.10829737949	1.33892210583	5.854296637	926.0	6.10829737949	926.0	5.854296637
1.34036958919	6.12874639683	1.34036958919	5.87380498755	925.0	6.12874639683	925.0	5.87380498755
1.34182020563	6.14828419314	1.34182020563	5.8924795062	924.0	6.14828419314	924.0	5.8924795062
1.34327396533	6.16674006367	1.34327396533	5.91003943678	923.0	6.16674006367	923.0	5.91003943678
1.34473087852	6.17860428525	1.34473087852	5.92131219575	922.0	6.17860428525	922.0	5.92131219575
1.34619095548	6.19992395565	1.34619095548	5.94167260808	921.0	6.19992395565	921.0	5.94167260808
1.34765420652	6.21381249111	1.34765420652	5.95491050715	920.0	6.21381249111	920.0	5.95491050715
1.349120642	6.23052712856	1.349120642	5.97083492026	919.0	6.23052712856	919.0	5.97083492026
1.35059027233	6.24821975318	1.35059027233	5.98765040572	918.0	6.24821975318	918.0	5.98765040572
1.35206310796	6.26108700105	1.35206310796	5.99995756491	917.0	6.26108700105	917.0	5.99995756491
1.35353915939	6.27699784846	1.35353915939	6.01511524138	916.0	6.27699784846	916.0	6.01511524138
1.35501843716	6.29005111167	1.35501843716	6.0275064147	915.0	6.29005111167	915.0	6.0275064147
1.35650095186	6.29946952761	1.35650095186	6.03647577411	914.0	6.29946952761	914.0	6.03647577411
1.35798671413	6.3183651035	1.35798671413	6.0544818447	913.0	6.3183651035	913.0	6.0544818447
1.35947573465	6.32842203969	1.35947573465	6.06403230005	912.0	6.32842203969	912.0	6.06403230005
1.36096802415	6.3408337753	1.36096802415	6.07586738038	911.0	6.3408337753	911.0	6.07586738038
1.36246359341	6.35532026504	1.36246359341	6.08967480744	910.0	6.35532026504	910.0	6.08967480744
1.36396245325	6.3645456251	1.36396245325	6.0984041525	909.0	6.3645456251	909.0	6.0984041525
1.36546461454	6.37740274288	1.36546461454	6.11066549133	908.0	6.37740274288	908.0	6.11066549133
1.3669700882	6.39382880954	1.3669700882	6.12628340591	907.0	6.39382880954	907.0	6.12628340591
1.36847888521	6.39652741529	1.36847888521	6.12883247806	906.0	6.39652741529	906.0	6.12883247806
1.36999101657	6.40715203731	1.36999101657	6.13894844549	905.0	6.40715203731	905.0	6.13894844549
1.37150649336	6.41360141597	1.37150649336	6.14505715184	904.0	6.41360141597	904.0	6.14505715184
1.37302532669	6.42279523404	1.37302532669	6.15378380916	903.0	6.42279523404	903.0	6.15378380916
1.37454752772	6.43488147802	1.37454752772	6.16532878704	902.0	6.43488147802	902.0	6.16532878704
1.37607310766	6.44976880888	1.37607310766	6.17943326749	901.0	6.44976880888	901.0	6.17943326749
1.37760207778	6.45165761324	1.37760207778	6.18120202523	900.0	6.45165761324	900.0	6.18120202523
1.37913444939	6.46663477632	1.37913444939	6.19544112153	899.0	6.46663477632	899.0	6.19544112153
1.38067023385	6.46968022521	1.38067023385	6.19828727452	898.0	6.46968022521	898.0	6.19828727452
1.38220944259	6.4844960578	1.38220944259	6.21244489433	897.0	6.4844960578	897.0	6.21244489433
1.38375208705	6.49183654211	1.38375208705	6.2193491858	896.0	6.49183654211	896.0	6.2193491858
1.38529817877	6.50688203268	1.38529817877	6.23363141851	895.0	6.50688203268	895.0	6.23363141851
1.38684772931	6.51789558398	1.38684772931	6.24407523616	894.0	6.51789558398	894.0	6.24407523616
1.38840075028	6.53177617734	1.38840075028	6.25728145742	893.0	6.53177617734	893.0	6.25728145742
1.38995725336	6.54385327096	1.38995725336	6.26873044274	892.0	6.54385327096	892.0	6.26873044274
1.39151725028	6.55659074743	1.39151725028	6.28079915815	891.0	6.55659074743	891.0	6.28079915815
1.39308075281	6.57526481178	1.39308075281	6.29858686589	890.0	6.57526481178	890.0	6.29858686589
1.39464777278	6.58579637449	1.39464777278	6.30854917683	889.0	6.58579637449	889.0	6.30854917683
1.39621832207	6.60669653273	1.39621832207	6.32839987391	888.0	6.60669653273	888.0	6.32839987391
1.39779241263	6.62295375208	1.39779241263	6.34382561019	887.0	6.62295375208	887.0	6.34382561019
1.39937005643	6.63439744854	1.39937005643	6.35468262393	886.0	6.63439744854	886.0	6.35468262393
1.40095126554	6.65451087229	1.40095126554	6.37376718682	885.0	6.65451087229	885.0	6.37376718682
1.40253605204	6.66741872557	1.40253605204	6.38601626366	884.0	6.66741872557	884.0	6.38601626366
1.40412442809	6.687832835	1.40412442809	6.40541105444	883.0	6.687832835	883.0	6.40541105444
1.4057164059	6.70646254135	1.4057164059	6.42308045583	882.0	6.70646254135	882.0	6.42308045583
1.40731199773	6.7267949008	1.40731199773	6.4423850609	881.0	6.7267949008	881.0	6.4423850609
1.40891121591	6.74913844014	1.40891121591	6.46357488909	880.0	6.74913844014	880.0	6.46357488909
1.41051407281	6.77326441783	1.41051407281	6.48651952837	879.0	6.77326441783	879.0	6.48651952837
1.41212058087	6.78387110072	1.41212058087	6.49651342243	878.0	6.78387110072	878.0	6.49651342243
1.41373075257	6.79969026768	1.41373075257	6.51153739631	877.0	6.79969026768	877.0	6.51153739631
1.41534460046	6.82209639152	1.41534460046	6.53278531267	876.0	6.82209639152	876.0	6.53278531267
1.41696213714	6.84443638326	1.41696213714	6.55399001224	875.0	6.84443638326	875.0	6.55399001224
1.41858337529	6.86068550728	1.41858337529	6.56939805583	874.0	6.86068550728	874.0	6.56939805583
1.42020832761	6.8782293826	1.42020832761	6.58601139509	873.0	6.8782293826	873.0	6.58601139509
1.42183700688	6.8964208934	1.42183700688	6.60326465122	872.0	6.8964208934	872.0	6.60326465122
1.42346942595	6.91550532732	1.42346942595	6.62135649484	871.0	6.91550532732	871.0	6.62135649484
1.4251055977	6.92293429952	1.4251055977	6.62830340313	870.0	6.92293429952	870.0	6.62830340313
1.4267455351	6.94341646661	1.4267455351	6.64774971926	869.0	6.94341646661	869.0	6.64774971926
1.42838925115	6.96208202606	1.42838925115	6.66540673864	868.0	6.96208202606	868.0	6.66540673864
1.43003675894	6.97306251695	1.43003675894	6.67574365369	867.0	6.97306251695	867.0	6.67574365369
1.43168807159	6.98133215129	1.43168807159	6.68353473065	866.0	6.98133215129	866.0	6.68353473065
1.43334320231	6.99674920772	1.43334320231	6.69809589435	865.0	6.99674920772	865.0	6.69809589435
1.43500216435	7.01057991592	1.43500216435	6.71116341567	864.0	7.01057991592	864.0	6.71116341567
1.43666497103	7.02982623617	1.43666497103	6.72940472491	863.0	7.02982623617	863.0	6.72940472491
1.43833163573	7.04313930123	1.43833163573	6.74195399822	862.0	7.04313930123	862.0	6.74195399822
1.44000217189	7.05615883591	1.44000217189	6.75428506027	861.0	7.05615883591	861.0	6.75428506027
1.44167659302	7.07164057981	1.44167659302	6.76886546189	860.0	7.07164057981	860.0	6.76886546189
1.44335491269	7.07964710404	1.44335491269	6.77636373201	859.0	7.07964710404	859.0	6.77636373201
1.44503714452	7.09188886381	1.44503714452	6.78788952145	858.0	7.09188886381	858.0	6.78788952145
1.44672330222	7.09708294007	1.44672330222	6.79271975491	857.0	7.09708294007	857.0	6.79271975491
1.44841339953	7.11164424241	1.44841339953	6.80640703414	856.0	7.11164424241	856.0	6.80640703414
1.45010745029	7.12381572291	1.45010745029	6.81787516323	855.0	7.12381572291	855.0	6.81787516323
1.45180546838	7.13640315821	1.45180546838	6.8297390145	854.0	7.13640315821	854.0	6.8297390145
1.45350746776	7.15349728175	1.45350746776	6.845856946	853.0	7.15349728175	853.0	6.845856946
1.45521346244	7.1720717297	1.45521346244	6.86339442417	852.0	7.1720717297	852.0	6.86339442417
1.45692346651	7.18230177958	1.45692346651	6.87301279106	851.0	7.18230177958	851.0	6.87301279106
1.45863749412	7.19854533821	1.45863749412	6.88831460882	850.0	7.19854533821	850.0	6.88831460882
1.46035555948	7.21423768081	1.46035555948	6.90309517082	849.0	7.21423768081	849.0	6.90309517082
1.46207767689	7.22647056127	1.46207767689	6.91453734906	848.0	7.22647056127	848.0	6.91453734906
1.46380386068	7.24548742117	1.46380386068	6.93251471466	847.0	7.24548742117	847.0	6.93251471466
1.4655341253	7.26376289332	1.4655341253	6.94973154199	846.0	7.26376289332	846.0	6.94973154199
1.46726848521	7.2914999055	1.46726848521	6.97604177273	845.0	7.2914999055	845.0	6.97604177273
1.46900695498	7.29760855014	1.46900695498	6.9816370819	844.0	7.29760855014	844.0	6.9816370819
1.47074954923	7.31005656199	1.47074954923	6.99328415532	843.0	7.31005656199	843.0	6.99328415532
1.47249628266	7.33928343778	1.47249628266	7.02092304519	842.0	7.33928343778	842.0	7.02092304519
1.47424717004	7.35655019848	1.47424717004	7.03718680385	841.0	7.35655019848	841.0	7.03718680385
1.47600222619	7.38648229898	1.47600222619	7.06551441435	840.0	7.38648229898	840.0	7.06551441435
1.47776146603	7.39903248999	1.47776146603	7.07728248882	839.0	7.39903248999	839.0	7.07728248882
1.47952490453	7.42266187696	1.47952490453	7.09958686427	838.0	7.42266187696	838.0	7.09958686427
1.48129255675	7.43850046709	1.48129255675	7.11446401792	837.0	7.43850046709	837.0	7.11446401792
1.4830644378	7.45745657612	1.4830644378	7.13229495996	836.0	7.45745657612	836.0	7.13229495996
1.48484056287	7.47616175407	1.48484056287	7.14991407867	835.0	7.47616175407	835.0	7.14991407867
1.48662094724	7.49195716492	1.48662094724	7.16472387234	834.0	7.49195716492	834.0	7.16472387234
1.48840560624	7.51647537326	1.48840560624	7.18783763962	833.0	7.51647537326	833.0	7.18783763962
1.49019455529	7.53623052676	1.49019455529	7.20642664176	832.0	7.53623052676	832.0	7.20642664176
1.49198780987	7.55235241039	1.49198780987	7.22152708951	831.0	7.55235241039	831.0	7.22152708951
1.49378538554	7.57831242187	1.49378538554	7.24602888395	830.0	7.57831242187	830.0	7.24602888395
1.49558729795	7.59611829389	1.49558729795	7.26275265556	829.0	7.59611829389	829.0	7.26275265556
1.4973935628	7.61758875339	1.4973935628	7.2829424883	828.0	7.61758875339	828.0	7.2829424883
1.49920419589	7.6300598243	1.49920419589	7.29455150997	827.0	7.6300598243	827.0	7.29455150997
1.50101921308	7.64981449143	1.50101921308	7.31310539701	826.0	7.64981449143	826.0	7.31310539701
1.5028386303	7.6568924153	1.5028386303	7.31958791713	825.0	7.6568924153	825.0	7.31958791713
1.50466246359	7.6802452076	1.50466246359	7.34155098688	824.0	7.6802452076	824.0	7.34155098688
1.50649072904	7.69708988997	1.50649072904	7.3573068598	823.0	7.69708988997	823.0	7.3573068598
1.50832344282	7.70838550013	1.50832344282	7.36778729517	822.0	7.70838550013	822.0	7.36778729517
1.51016062119	7.71969154829	1.51016062119	7.37824258229	821.0	7.71969154829	821.0	7.37824258229
1.51200228049	7.7333448111	1.51200228049	7.39095868347	820.0	7.7333448111	820.0	7.39095868347
1.51384843712	7.75107497671	1.51384843712	7.40754580254	819.0	7.75107497671	819.0	7.40754580254
1.51569910758	7.7715156169	1.51569910758	7.42674695476	818.0	7.7715156169	818.0	7.42674695476
1.51755430845	7.76848663784	1.51755430845	7.42351766099	817.0	7.76848663784	817.0	7.42351766099
1.51941405637	7.80256984296	1.51941405637	7.45568308471	816.0	7.80256984296	816.0	7.45568308471
1.5212783681	7.80246703113	1.5212783681	7.45523795043	815.0	7.80246703113	815.0	7.45523795043
1.52314726044	7.8175968094	1.52314726044	7.46930928525	814.0	7.8175968094	814.0	7.46930928525
1.52502075031	7.83278564135	1.52502075031	7.48344133495	813.0	7.83278564135	813.0	7.48344133495
1.52689885468	7.84389606137	1.52689885468	7.49367717053	812.0	7.84389606137	812.0	7.49367717053
1.52878159063	7.87004974097	1.52878159063	7.51824209761	811.0	7.87004974097	811.0	7.51824209761
1.53066897531	7.88282285933	1.53066897531	7.53005137568	810.0	7.88282285933	810.0	7.53005137568
1.53256102596	7.91124296247	1.53256102596	7.55677842346	809.0	7.91124296247	809.0	7.55677842346
1.5344577599	7.91578191133	1.5344577599	7.56071627887	808.0	7.91578191133	808.0	7.56071627887
1.53635919455	7.93632113395	1.53635919455	7.57989306774	807.0	7.93632113395	807.0	7.57989306774
1.53826534739	7.95962777439	1.53826534739	7.60172433516	806.0	7.95962777439	806.0	7.60172433516
1.54017623602	7.97376955045	1.54017623602	7.61479186864	805.0	7.97376955045	805.0	7.61479186864
1.54209187811	7.99912620152	1.54209187811	7.6385604867	804.0	7.99912620152	804.0	7.6385604867
1.54401229141	8.02521938767	1.54401229141	7.66301446975	803.0	8.02521938767	803.0	7.66301446975
1.54593749377	8.04639618014	1.54593749377	7.68276286239	802.0	8.04639618014	802.0	7.68276286239
1.54786750312	8.06372984065	1.54786750312	7.69885910866	801.0	8.06372984065	801.0	7.69885910866
1.5498023375	8.08890741363	1.5498023375	7.7224200309	800.0	8.08890741363	800.0	7.7224200309
1.55174201502	8.10316018222	1.55174201502	7.73557287582	799.0	8.10316018222	799.0	7.73557287582
1.55368655388	8.12853478763	1.55368655388	7.75929028209	798.0	8.12853478763	798.0	7.75929028209
1.5556359724	8.23203213852	1.5556359724	7.85754031117	797.0	8.23203213852	797.0	7.85754031117
1.55759028894	8.25224278117	1.55759028894	7.87633188468	796.0	8.25224278117	796.0	7.87633188468
1.55954952201	8.27393268533	1.55954952201	7.89653405784	795.0	8.27393268533	795.0	7.89653405784
1.56151369018	8.29520297883	1.56151369018	7.91631864206	794.0	8.29520297883	794.0	7.91631864206
1.56348281211	8.31407215389	1.56348281211	7.93380591901	793.0	8.31407215389	793.0	7.93380591901
1.56545690657	8.33581450417	1.56545690657	7.95403009848	792.0	8.33581450417	792.0	7.95403009848
1.56743599241	8.35432993771	1.56743599241	7.97116232433	791.0	8.35432993771	791.0	7.97116232433
1.56942008861	8.37330473657	1.56942008861	7.98872741222	790.0	8.37330473657	790.0	7.98872741222
1.5714092142	8.39190151728	1.5714092142	8.00593279699	789.0	8.39190151728	789.0	8.00593279699
1.57340338832	8.41212570288	1.57340338832	8.02467131899	788.0	8.41212570288	788.0	8.02467131899
1.57540263024	8.43096627884	1.57540263024	8.04208362937	787.0	8.43096627884	787.0	8.04208362937
1.57740695929	8.44488431946	1.57740695929	8.05479680951	786.0	8.44488431946	786.0	8.05479680951
1.5794163949	8.46310591965	1.5794163949	8.07160096957	785.0	8.46310591965	785.0	8.07160096957
1.58143095663	8.47927543048	1.58143095663	8.08644372835	784.0	8.47927543048	784.0	8.08644372835
